Date,High,Low,Open,Close,Volume,Adj Close
2017-01-03,74.26000213623047,72.3499984741211,74.26000213623047,73.0199966430664,336300.0,68.79412841796875
2017-01-04,74.72000122070312,72.91999816894531,72.91999816894531,74.2300033569336,418800.0,69.93412017822266
2017-01-05,74.41000366210938,73.2300033569336,73.72000122070312,73.47000122070312,356400.0,69.21809387207031
2017-01-06,73.97000122070312,73.06999969482422,73.52999877929688,73.5,282800.0,69.24635314941406
2017-01-09,74.41000366210938,73.08000183105469,73.5,73.68000030517578,374100.0,69.41593933105469
2017-01-10,73.58999633789062,72.80000305175781,73.33000183105469,72.81999969482422,161500.0,68.605712890625
2017-01-11,73.36000061035156,72.77999877929688,73.02999877929688,73.04000091552734,193100.0,68.8129653930664
2017-01-12,73.76000213623047,72.36000061035156,73.1500015258789,73.33000183105469,184300.0,69.0862045288086
2017-01-13,73.81999969482422,73.02999877929688,73.30999755859375,73.5,188900.0,69.24635314941406
2017-01-17,73.83000183105469,72.86000061035156,72.87999725341797,73.33999633789062,270200.0,69.09561157226562
2017-01-18,73.80000305175781,73.0199966430664,73.41999816894531,73.4800033569336,261000.0,69.22752380371094
2017-01-19,73.69000244140625,72.45999908447266,73.63999938964844,72.7300033569336,374700.0,68.52091979980469
2017-01-20,72.51000213623047,71.55000305175781,72.37000274658203,71.63999938964844,347300.0,67.4939956665039
2017-01-23,72.52999877929688,71.44000244140625,71.87999725341797,72.44999694824219,384600.0,68.25709533691406
2017-01-24,73.8499984741211,72.79000091552734,72.79000091552734,73.54000091552734,266000.0,69.28404235839844
2017-01-25,73.94000244140625,73.13999938964844,73.36000061035156,73.43000030517578,267000.0,69.18040466308594
2017-01-26,73.68000030517578,72.45999908447266,73.38999938964844,73.31999969482422,275500.0,69.07677459716797
2017-01-27,73.48999786376953,72.91000366210938,73.4000015258789,73.44000244140625,320400.0,69.18983459472656
2017-01-30,73.44000244140625,72.0999984741211,73.06999969482422,72.73999786376953,342000.0,68.83026123046875
2017-01-31,73.30999755859375,72.29000091552734,72.87000274658203,72.97000122070312,669400.0,69.04789733886719
2017-02-01,74.05000305175781,73.05000305175781,73.29000091552734,73.94000244140625,446900.0,69.96574401855469
2017-02-02,73.80000305175781,73.01000213623047,73.80000305175781,73.33000183105469,325700.0,69.3885269165039
2017-02-03,74.12999725341797,73.5,73.7699966430664,73.77999877929688,278200.0,69.8143539428711
2017-02-06,74.0199966430664,73.12000274658203,73.52999877929688,73.3499984741211,254500.0,69.40745544433594
2017-02-07,73.47000122070312,72.6500015258789,73.33999633789062,72.7300033569336,360800.0,68.8207778930664
2017-02-08,73.69999694824219,72.44000244140625,72.62000274658203,73.55000305175781,397300.0,69.5967025756836
2017-02-09,73.94000244140625,73.16000366210938,73.37000274658203,73.56999969482422,438000.0,69.6156234741211
2017-02-10,76.19999694824219,74.20999908447266,74.20999908447266,74.79000091552734,1160100.0,70.77006530761719
2017-02-13,75.44000244140625,74.36000061035156,75.22000122070312,74.43000030517578,440000.0,70.42939758300781
2017-02-14,74.4000015258789,73.72000122070312,74.4000015258789,73.83000183105469,432000.0,69.86165618896484
2017-02-15,73.91999816894531,72.86000061035156,73.83000183105469,73.19999694824219,522800.0,69.26551818847656
2017-02-16,74.2300033569336,73.4000015258789,73.4000015258789,74.19999694824219,267000.0,70.2117691040039
2017-02-17,74.55000305175781,73.47000122070312,74.41999816894531,73.9000015258789,318600.0,69.92790222167969
2017-02-21,74.66000366210938,73.86000061035156,73.91000366210938,74.58999633789062,188600.0,70.58080291748047
2017-02-22,74.80999755859375,73.94000244140625,74.33999633789062,74.26000213623047,204500.0,70.26854705810547
2017-02-23,74.55999755859375,74.04000091552734,74.47000122070312,74.12000274658203,250600.0,70.13606262207031
2017-02-24,74.48999786376953,73.63999938964844,73.77999877929688,74.36000061035156,232400.0,70.3631820678711
2017-02-27,75.0199966430664,74.0999984741211,74.0999984741211,74.4800033569336,251800.0,70.47672271728516
2017-02-28,74.6500015258789,73.94999694824219,74.2699966430664,74.51000213623047,390200.0,70.5051040649414
2017-03-01,76.16999816894531,74.91999816894531,75.20999908447266,76.05999755859375,371000.0,71.9718017578125
2017-03-02,76.06999969482422,75.45999908447266,75.69000244140625,75.80999755859375,327700.0,71.7352294921875
2017-03-03,76.23999786376953,75.52999877929688,75.52999877929688,76.04000091552734,298400.0,71.95286560058594
2017-03-06,76.08999633789062,75.47000122070312,75.47000122070312,75.6500015258789,302100.0,71.58384704589844
2017-03-07,75.94000244140625,75.18000030517578,75.54000091552734,75.47000122070312,452700.0,71.41350555419922
2017-03-08,76.05999755859375,75.27999877929688,75.27999877929688,75.94000244140625,435600.0,71.85824584960938
2017-03-09,76.4800033569336,75.58999633789062,75.87999725341797,75.8499984741211,341200.0,71.77308654785156
2017-03-10,77.0,75.80000305175781,76.12000274658203,76.79000091552734,435400.0,72.66255950927734
2017-03-13,77.0,76.16000366210938,76.80000305175781,76.75,221900.0,72.62471008300781
2017-03-14,77.0199966430664,75.3499984741211,75.62999725341797,76.52999877929688,265900.0,72.41653442382812
2017-03-15,77.69000244140625,76.83000183105469,76.91999816894531,77.23999786376953,225600.0,73.08837890625
2017-03-16,77.52999877929688,76.69000244140625,77.30000305175781,76.9800033569336,186200.0,72.84234619140625
2017-03-17,77.23999786376953,76.58999633789062,76.9000015258789,77.08000183105469,405100.0,72.93697357177734
2017-03-20,77.87000274658203,76.75,77.16999816894531,77.83999633789062,247300.0,73.65612030029297
2017-03-21,77.83000183105469,76.62999725341797,77.72000122070312,76.7699966430664,321300.0,72.64361572265625
2017-03-22,77.08000183105469,76.51000213623047,76.66000366210938,76.8499984741211,130100.0,72.7193374633789
2017-03-23,77.73999786376953,76.31999969482422,76.83000183105469,77.16000366210938,136400.0,73.0126724243164
2017-03-24,77.6500015258789,76.33000183105469,77.19000244140625,76.62000274658203,154300.0,72.50170135498047
2017-03-27,76.76000213623047,75.80999755859375,75.80999755859375,76.62000274658203,256200.0,72.50170135498047
2017-03-28,77.27999877929688,76.33000183105469,76.41000366210938,77.06999969482422,237700.0,72.92750549316406
2017-03-29,77.11000061035156,76.48999786376953,77.11000061035156,77.04000091552734,129300.0,72.89913177490234
2017-03-30,77.37999725341797,76.55999755859375,76.98999786376953,76.86000061035156,141800.0,72.72879791259766
2017-03-31,77.27999877929688,76.41999816894531,76.9000015258789,76.98999786376953,197200.0,72.85181427001953
2017-04-03,77.45999908447266,76.20999908447266,76.94000244140625,76.44999694824219,424900.0,72.3408432006836
2017-04-04,76.9000015258789,75.94999694824219,76.5,76.73999786376953,318700.0,72.6152572631836
2017-04-05,77.04000091552734,76.0199966430664,77.04000091552734,76.08000183105469,372800.0,71.99072265625
2017-04-06,76.54000091552734,75.48999786376953,75.94000244140625,76.52999877929688,293700.0,72.41653442382812
2017-04-07,76.79000091552734,76.0199966430664,76.48999786376953,76.16000366210938,214800.0,72.06643676757812
2017-04-10,76.94999694824219,75.91999816894531,75.94000244140625,76.88999938964844,242100.0,72.75718688964844
2017-04-11,76.97000122070312,76.41999816894531,76.5999984741211,76.91999816894531,263700.0,72.78557586669922
2017-04-12,76.91999816894531,76.04000091552734,76.88999938964844,76.2300033569336,236800.0,72.13265228271484
2017-04-13,76.58999633789062,75.76000213623047,76.05000305175781,75.80000305175781,164800.0,71.72578430175781
2017-04-17,77.30000305175781,75.87999725341797,76.02999877929688,77.2699966430664,220500.0,73.11676788330078
2017-04-18,77.68000030517578,76.94000244140625,77.04000091552734,77.56999969482422,196800.0,73.400634765625
2017-04-19,77.93000030517578,77.51000213623047,77.87000274658203,77.55000305175781,264800.0,73.3817138671875
2017-04-20,78.31999969482422,76.94999694824219,76.94999694824219,77.81999969482422,354300.0,73.63719940185547
2017-04-21,78.63999938964844,77.0999984741211,78.18000030517578,77.98999786376953,185200.0,73.79804229736328
2017-04-24,78.97000122070312,77.72000122070312,78.97000122070312,78.30000305175781,250700.0,74.09140014648438
2017-04-25,79.16999816894531,77.62000274658203,78.3499984741211,78.7300033569336,290500.0,74.49829864501953
2017-04-26,79.5,78.69000244140625,78.91999816894531,79.33999633789062,343000.0,75.07549285888672
2017-04-27,79.5999984741211,78.43000030517578,79.19999694824219,78.79000091552734,237600.0,74.55506896972656
2017-04-28,80.52999877929688,78.76000213623047,80.0,80.30000305175781,637700.0,75.9839096069336
2017-05-01,80.5999984741211,79.20999908447266,80.08000183105469,79.7300033569336,974600.0,75.74639892578125
2017-05-02,80.68000030517578,78.88999938964844,79.3499984741211,80.19999694824219,450100.0,76.1928939819336
2017-05-03,80.66000366210938,79.5,79.88999938964844,80.44999694824219,384500.0,76.430419921875
2017-05-04,81.72000122070312,80.5,80.5,81.38999938964844,488800.0,77.32344818115234
2017-05-05,82.16999816894531,81.31999969482422,81.4000015258789,81.91000366210938,413400.0,77.8174819946289
2017-05-08,82.61000061035156,81.72000122070312,82.08000183105469,82.51000213623047,374100.0,78.38750457763672
2017-05-09,82.94000244140625,82.11000061035156,82.61000061035156,82.4800033569336,302600.0,78.35899353027344
2017-05-10,83.04000091552734,82.25,82.25,82.87000274658203,308100.0,78.72950744628906
2017-05-11,82.91999816894531,81.81999969482422,82.48999786376953,82.52999877929688,311500.0,78.40650939941406
2017-05-12,82.81999969482422,82.23999786376953,82.44999694824219,82.43000030517578,227600.0,78.31149291992188
2017-05-15,82.9800033569336,82.19000244140625,82.43000030517578,82.62999725341797,211900.0,78.50149536132812
2017-05-16,82.80000305175781,82.2300033569336,82.58000183105469,82.79000091552734,210700.0,78.65351104736328
2017-05-17,82.79000091552734,81.8499984741211,82.79000091552734,82.27999877929688,266100.0,78.16897583007812
2017-05-18,82.4000015258789,81.12000274658203,82.25,82.13999938964844,325700.0,78.03595733642578
2017-05-19,82.51000213623047,81.81999969482422,82.19000244140625,82.36000061035156,331900.0,78.24497985839844
2017-05-22,82.9800033569336,82.05000305175781,82.25,82.83999633789062,238500.0,78.70098114013672
2017-05-23,83.66000366210938,82.97000122070312,83.0,83.19000244140625,204100.0,79.03352355957031
2017-05-24,83.5199966430664,82.80000305175781,83.19000244140625,83.38999938964844,187400.0,79.22351837158203
2017-05-25,84.27999877929688,83.26000213623047,83.62000274658203,84.1500015258789,203200.0,79.945556640625
2017-05-26,84.62999725341797,84.05999755859375,84.1500015258789,84.37000274658203,158300.0,80.15454864501953
2017-05-30,84.63999938964844,83.80000305175781,84.12999725341797,84.54000091552734,224400.0,80.31605529785156
2017-05-31,85.18000030517578,84.41999816894531,85.18000030517578,85.01000213623047,285400.0,80.76258087158203
2017-06-01,86.30999755859375,85.01000213623047,85.25,86.26000213623047,272600.0,81.95013427734375
2017-06-02,86.7300033569336,85.7300033569336,86.4000015258789,86.33000183105469,170700.0,82.0166015625
2017-06-05,87.08999633789062,85.77999877929688,86.0999984741211,85.8499984741211,237600.0,81.56060791015625
2017-06-06,85.83000183105469,85.05999755859375,85.83000183105469,85.4800033569336,342600.0,81.2090835571289
2017-06-07,85.91999816894531,85.05999755859375,85.11000061035156,85.69000244140625,366600.0,81.40860748291016
2017-06-08,85.98999786376953,84.86000061035156,85.77999877929688,85.25,185000.0,80.9906005859375
2017-06-09,85.80000305175781,85.18000030517578,85.30000305175781,85.6500015258789,189800.0,81.37060546875
2017-06-12,85.9800033569336,84.87000274658203,85.23999786376953,85.44000244140625,239000.0,81.17110443115234
2017-06-13,86.18000030517578,85.4800033569336,85.86000061035156,86.18000030517578,178500.0,81.8741226196289
2017-06-14,86.7699966430664,86.04000091552734,86.04000091552734,86.25,212300.0,81.94062805175781
2017-06-15,86.29000091552734,84.9000015258789,85.5199966430664,86.2300033569336,200000.0,81.921630859375
2017-06-16,86.36000061035156,85.44999694824219,86.0,85.94999694824219,450200.0,81.65560913085938
2017-06-19,86.87000274658203,85.93000030517578,86.31999969482422,86.75,166600.0,82.4156494140625
2017-06-20,87.18000030517578,86.6500015258789,86.94999694824219,86.88999938964844,240200.0,82.54866027832031
2017-06-21,87.94000244140625,86.55000305175781,86.91999816894531,87.0,185800.0,82.65315246582031
2017-06-22,87.36000061035156,86.41000366210938,86.95999908447266,86.81999969482422,166200.0,82.48213195800781
2017-06-23,87.68000030517578,86.33000183105469,86.83000183105469,86.80000305175781,474300.0,82.463134765625
2017-06-26,87.58999633789062,86.61000061035156,86.97000122070312,87.13999938964844,307000.0,82.78616333007812
2017-06-27,87.51000213623047,86.33999633789062,87.0,86.37000274658203,187900.0,82.05462646484375
2017-06-28,87.37000274658203,86.2699966430664,86.95999908447266,86.93000030517578,169600.0,82.58665466308594
2017-06-29,87.12999725341797,85.77999877929688,86.87000274658203,86.48999786376953,196100.0,82.16861724853516
2017-06-30,87.33000183105469,86.7699966430664,86.93000030517578,86.86000061035156,238500.0,82.52014923095703
2017-07-03,87.66999816894531,86.88999938964844,87.20999908447266,87.08000183105469,118800.0,82.72917938232422
2017-07-05,87.5,86.44000244140625,86.94999694824219,87.29000091552734,243900.0,82.92867279052734
2017-07-06,87.73999786376953,86.69000244140625,86.83000183105469,87.30999755859375,393900.0,82.94766998291016
2017-07-07,88.55000305175781,87.13999938964844,87.69000244140625,88.08999633789062,245200.0,83.68869018554688
2017-07-10,89.06999969482422,87.4800033569336,87.94999694824219,88.30000305175781,246000.0,83.88819885253906
2017-07-11,88.58000183105469,87.75,88.19000244140625,88.16999816894531,180700.0,83.76468658447266
2017-07-12,89.31999969482422,88.43000030517578,88.86000061035156,88.9800033569336,142400.0,84.53422546386719
2017-07-13,89.2699966430664,87.79000091552734,89.06999969482422,88.62999725341797,278600.0,84.20170593261719
2017-07-14,89.97000122070312,88.91999816894531,89.12000274658203,89.43000030517578,305900.0,84.96176147460938
2017-07-17,89.97000122070312,89.2300033569336,89.5,89.79000091552734,299300.0,85.30376434326172
2017-07-18,90.41000366210938,89.08000183105469,89.4000015258789,89.73999786376953,278500.0,85.25623321533203
2017-07-19,90.79000091552734,89.68000030517578,90.31999969482422,90.08999633789062,395300.0,85.58876037597656
2017-07-20,90.4800033569336,89.52999877929688,90.2699966430664,89.69999694824219,323100.0,85.2182388305664
2017-07-21,89.98999786376953,89.0,89.98999786376953,89.51000213623047,271500.0,85.03775787353516
2017-07-24,89.58999633789062,88.58999633789062,88.94000244140625,89.45999908447266,390200.0,85.29518127441406
2017-07-25,89.95999908447266,88.5199966430664,89.95999908447266,88.69000244140625,596900.0,84.56101989746094
2017-07-26,88.97000122070312,87.98999786376953,88.77999877929688,88.05999755859375,317800.0,83.96034240722656
2017-07-27,88.5,87.26000213623047,88.5,88.0,328900.0,83.90314483642578
2017-07-28,83.69999694824219,80.83000183105469,83.4000015258789,82.30999755859375,915000.0,78.4780502319336
2017-07-31,83.5,80.69000244140625,82.23999786376953,80.93000030517578,962700.0,77.16229248046875
2017-08-01,82.79000091552734,80.9800033569336,81.0,82.51000213623047,463400.0,78.66874694824219
2017-08-02,82.75,81.2300033569336,82.54000091552734,82.25,348600.0,78.42084503173828
2017-08-03,82.41999816894531,81.81999969482422,82.30000305175781,82.25,322100.0,78.42084503173828
2017-08-04,82.77999877929688,82.16999816894531,82.5,82.36000061035156,168100.0,78.52571105957031
2017-08-07,82.94999694824219,82.38999938964844,82.55000305175781,82.73999786376953,171600.0,78.88802337646484
2017-08-08,82.93000030517578,82.4000015258789,82.62999725341797,82.73999786376953,163300.0,78.88802337646484
2017-08-09,82.80000305175781,82.23999786376953,82.5,82.4800033569336,188900.0,78.64013671875
2017-08-10,82.73999786376953,81.4800033569336,82.2300033569336,81.51000213623047,265100.0,77.71529388427734
2017-08-11,82.3499984741211,81.41000366210938,82.3499984741211,82.13999938964844,214100.0,78.31594848632812
2017-08-14,83.0,82.51000213623047,82.62999725341797,82.91000366210938,147300.0,79.05012512207031
2017-08-15,83.0,82.55000305175781,82.73999786376953,82.75,190900.0,78.89756774902344
2017-08-16,83.83000183105469,82.69999694824219,82.86000061035156,83.55000305175781,248800.0,79.66032409667969
2017-08-17,83.5199966430664,82.12000274658203,83.2699966430664,82.12999725341797,221700.0,78.30641174316406
2017-08-18,82.30000305175781,81.63999938964844,82.01000213623047,82.1500015258789,191000.0,78.32549285888672
2017-08-21,82.4800033569336,81.33999633789062,82.05999755859375,81.48999786376953,126300.0,77.69622802734375
2017-08-22,82.29000091552734,81.7300033569336,81.9800033569336,82.12000274658203,190100.0,78.29689025878906
2017-08-23,82.52999877929688,81.48999786376953,81.75,81.61000061035156,180500.0,77.81063842773438
2017-08-24,82.05999755859375,80.94999694824219,81.7300033569336,81.08000183105469,180000.0,77.30531311035156
2017-08-25,82.7300033569336,81.5,81.5,82.38999938964844,330100.0,78.5543212890625
2017-08-28,82.77999877929688,81.48999786376953,82.6500015258789,81.86000061035156,241600.0,78.0489730834961
2017-08-29,82.0999984741211,81.56999969482422,81.9000015258789,82.0,226300.0,78.18248748779297
2017-08-30,83.18000030517578,81.9000015258789,82.13999938964844,82.97000122070312,207600.0,79.10731506347656
2017-08-31,83.66000366210938,82.72000122070312,83.18000030517578,83.61000061035156,266700.0,79.71752166748047
2017-09-01,84.0,83.41999816894531,83.80000305175781,83.87999725341797,183000.0,79.9749526977539
2017-09-05,84.16999816894531,83.18000030517578,83.72000122070312,83.25,191900.0,79.3742904663086
2017-09-06,83.33000183105469,82.48999786376953,83.33000183105469,82.8499984741211,240900.0,78.99291229248047
2017-09-07,83.73999786376953,82.31999969482422,82.95999908447266,83.61000061035156,241000.0,79.71752166748047
2017-09-08,84.18000030517578,82.7699966430664,83.5,83.81999969482422,207600.0,79.91775512695312
2017-09-11,85.16999816894531,84.0,84.31999969482422,85.12000274658203,209800.0,81.1572265625
2017-09-12,85.44000244140625,84.70999908447266,84.93000030517578,85.19999694824219,214500.0,81.2334976196289
2017-09-13,85.04000091552734,84.37000274658203,84.61000061035156,84.5,229000.0,80.56609344482422
2017-09-14,85.0999984741211,84.16000366210938,84.51000213623047,84.87000274658203,166300.0,80.91887664794922
2017-09-15,84.94999694824219,84.4800033569336,84.73999786376953,84.70999908447266,399800.0,80.76631927490234
2017-09-18,85.66999816894531,84.73999786376953,84.97000122070312,85.44000244140625,198600.0,81.46234130859375
2017-09-19,85.76000213623047,84.94999694824219,85.43000030517578,85.55999755859375,260300.0,81.57674407958984
2017-09-20,86.23999786376953,85.63999938964844,85.66000366210938,86.12000274658203,167200.0,82.11067199707031
2017-09-21,86.76000213623047,85.87000274658203,86.08000183105469,86.1500015258789,199600.0,82.13927459716797
2017-09-22,86.2699966430664,85.44999694824219,86.19999694824219,85.72000122070312,189400.0,81.72929382324219
2017-09-25,86.88999938964844,85.3499984741211,85.75,86.76000213623047,222800.0,82.72087097167969
2017-09-26,87.31999969482422,86.44999694824219,87.0999984741211,86.75,199700.0,82.71133422851562
2017-09-27,86.93000030517578,86.20999908447266,86.80000305175781,86.54000091552734,272900.0,82.51113891601562
2017-09-28,87.51000213623047,86.08999633789062,86.36000061035156,87.08000183105469,228200.0,83.02599334716797
2017-09-29,87.12999725341797,86.30000305175781,87.0199966430664,86.30999755859375,220700.0,82.29181671142578
2017-10-02,87.97000122070312,86.54000091552734,86.80999755859375,87.87999725341797,264000.0,83.78874206542969
2017-10-03,88.44000244140625,87.9000015258789,87.9000015258789,88.43000030517578,202100.0,84.31311798095703
2017-10-04,88.8499984741211,87.91999816894531,88.26000213623047,88.13999938964844,231600.0,84.03662872314453
2017-10-05,88.7300033569336,87.62000274658203,88.51000213623047,88.13999938964844,178900.0,84.03662872314453
2017-10-06,88.62999725341797,87.9000015258789,88.04000091552734,88.58000183105469,162800.0,84.45613098144531
2017-10-09,88.79000091552734,88.33000183105469,88.68000030517578,88.45999908447266,139400.0,84.34172058105469
2017-10-10,88.87000274658203,88.22000122070312,88.5999984741211,88.47000122070312,186700.0,84.35126495361328
2017-10-11,88.80000305175781,88.19000244140625,88.4800033569336,88.36000061035156,162500.0,84.24640655517578
2017-10-12,88.70999908447266,88.22000122070312,88.5,88.48999786376953,168000.0,84.3703384399414
2017-10-13,89.37000274658203,88.69000244140625,88.69000244140625,88.83999633789062,187100.0,84.70404052734375
2017-10-16,88.94000244140625,87.97000122070312,88.91999816894531,88.94000244140625,236000.0,84.79940032958984
2017-10-17,89.30000305175781,88.70999908447266,89.30000305175781,88.9800033569336,175200.0,84.8375244140625
2017-10-18,89.37000274658203,88.31999969482422,88.7300033569336,88.5999984741211,207400.0,84.47522735595703
2017-10-19,88.83000183105469,88.3499984741211,88.51000213623047,88.63999938964844,151600.0,84.51334381103516
2017-10-20,89.30999755859375,88.69999694824219,89.2300033569336,89.19999694824219,134800.0,85.04728698730469
2017-10-23,89.68000030517578,88.91999816894531,89.16000366210938,89.02999877929688,418900.0,84.88520050048828
2017-10-24,89.62999725341797,88.83000183105469,89.05999755859375,89.12000274658203,189100.0,84.97100830078125
2017-10-25,89.47000122070312,87.69000244140625,89.06999969482422,88.48999786376953,201800.0,84.3703384399414
2017-10-26,89.23999786376953,88.5999984741211,88.80999755859375,88.94000244140625,234700.0,84.79940032958984
2017-10-27,89.4000015258789,85.88999938964844,89.4000015258789,87.93000030517578,531500.0,83.83641052246094
2017-10-30,87.58999633789062,86.25,87.45999908447266,86.45999908447266,260400.0,82.43482971191406
2017-10-31,87.30000305175781,86.12000274658203,86.25,87.06999969482422,474700.0,83.32484436035156
2017-11-01,88.12000274658203,87.20999908447266,87.83000183105469,87.41000366210938,279300.0,83.65023040771484
2017-11-02,87.37000274658203,86.31999969482422,87.08999633789062,86.5999984741211,259200.0,82.87505340576172
2017-11-03,87.18000030517578,86.5999984741211,86.5999984741211,86.94000244140625,216000.0,83.20043182373047
2017-11-06,87.08000183105469,85.68000030517578,87.0199966430664,85.8499984741211,271600.0,82.15731811523438
2017-11-07,86.11000061035156,85.38999938964844,85.8499984741211,85.72000122070312,326900.0,82.03291320800781
2017-11-08,86.5999984741211,85.63999938964844,85.68000030517578,85.7300033569336,271400.0,82.04248046875
2017-11-09,85.41999816894531,84.31999969482422,85.19999694824219,84.76000213623047,146600.0,81.11421203613281
2017-11-10,85.11000061035156,84.22000122070312,84.3499984741211,84.91000366210938,195800.0,81.25775909423828
2017-11-13,85.76000213623047,84.62000274658203,84.62000274658203,85.58999633789062,156100.0,81.90849304199219
2017-11-14,85.88999938964844,85.16000366210938,85.37999725341797,85.61000061035156,157400.0,81.92762756347656
2017-11-15,85.9800033569336,85.08000183105469,85.54000091552734,85.4800033569336,182500.0,81.80322265625
2017-11-16,86.5,85.5999984741211,85.73999786376953,86.11000061035156,264400.0,82.40612030029297
2017-11-17,86.23999786376953,85.4800033569336,86.02999877929688,85.6500015258789,171000.0,81.9659194946289
2017-11-20,86.43000030517578,85.31999969482422,85.61000061035156,85.47000122070312,220200.0,81.7936782836914
2017-11-21,86.81999969482422,85.31999969482422,85.91999816894531,86.54000091552734,506700.0,82.8176498413086
2017-11-22,86.62000274658203,85.79000091552734,86.61000061035156,85.8499984741211,140300.0,82.15731811523438
2017-11-24,86.33999633789062,85.0999984741211,85.48999786376953,86.25,108200.0,82.54012298583984
2017-11-27,87.0,86.37000274658203,86.37000274658203,86.73999786376953,330900.0,83.00904083251953
2017-11-28,87.47000122070312,86.43000030517578,87.27999877929688,86.91000366210938,194600.0,83.1717300415039
2017-11-29,87.73999786376953,87.08000183105469,87.11000061035156,87.55999755859375,193900.0,83.79375457763672
2017-11-30,88.9000015258789,87.08000183105469,87.61000061035156,88.41000366210938,232000.0,84.6072006225586
2017-12-01,88.98999786376953,86.44000244140625,88.33000183105469,87.5999984741211,244300.0,83.83203887939453
2017-12-04,88.69999694824219,87.31999969482422,87.79000091552734,88.05999755859375,290400.0,84.27224731445312
2017-12-05,89.16000366210938,87.88999938964844,88.33000183105469,89.0,255800.0,85.17182922363281
2017-12-06,88.94000244140625,88.12000274658203,88.94000244140625,88.16999816894531,251700.0,84.37751770019531
2017-12-07,88.72000122070312,87.79000091552734,88.44999694824219,88.37999725341797,258900.0,84.57849884033203
2017-12-08,88.5,87.55999755859375,88.2699966430664,87.9000015258789,251000.0,84.119140625
2017-12-11,87.87000274658203,86.86000061035156,87.87000274658203,87.27999877929688,241200.0,83.52580261230469
2017-12-12,87.54000091552734,85.69999694824219,87.30000305175781,86.43000030517578,424400.0,82.71237182617188
2017-12-13,87.19000244140625,85.76000213623047,86.05000305175781,86.69000244140625,420900.0,82.96118927001953
2017-12-14,87.20999908447266,86.31999969482422,87.08000183105469,86.37000274658203,302000.0,82.65494537353516
2017-12-15,87.51000213623047,86.58999633789062,86.58999633789062,86.9800033569336,474900.0,83.23871612548828
2017-12-18,87.88999938964844,86.4800033569336,87.25,86.56999969482422,251800.0,82.84634399414062
2017-12-19,87.6500015258789,86.30000305175781,86.30000305175781,86.58000183105469,367200.0,82.85591888427734
2017-12-20,87.12999725341797,86.29000091552734,86.83999633789062,86.33000183105469,189500.0,82.61665344238281
2017-12-21,86.79000091552734,85.72000122070312,86.4000015258789,85.76000213623047,265400.0,82.07118225097656
2017-12-22,86.36000061035156,85.43000030517578,85.68000030517578,85.9000015258789,162500.0,82.20518493652344
2017-12-26,86.44999694824219,85.22000122070312,85.79000091552734,85.38999938964844,130500.0,81.71707916259766
2017-12-27,85.81999969482422,85.05999755859375,85.41999816894531,85.62000274658203,114500.0,81.93721008300781
2017-12-28,86.87000274658203,85.66000366210938,85.8499984741211,86.75,207000.0,83.01860046386719
2017-12-29,87.0,86.23999786376953,86.87999725341797,86.27999877929688,148900.0,82.56883239746094
2018-01-02,87.31999969482422,86.08000183105469,86.44000244140625,87.01000213623047,233300.0,83.2674331665039
2018-01-03,87.61000061035156,86.81999969482422,87.26000213623047,87.19000244140625,177700.0,83.43968963623047
2018-01-04,87.93000030517578,85.80000305175781,87.20999908447266,86.01000213623047,362900.0,82.31044006347656
2018-01-05,87.44999694824219,86.19000244140625,86.29000091552734,86.91000366210938,209200.0,83.1717300415039
2018-01-08,87.51000213623047,86.56999969482422,86.86000061035156,87.19999694824219,341200.0,83.44923400878906
2018-01-09,87.76000213623047,86.36000061035156,87.27999877929688,86.38999938964844,282000.0,82.6740951538086
2018-01-10,86.0999984741211,85.16000366210938,86.0999984741211,85.66999816894531,161400.0,81.98506927490234
2018-01-11,86.48999786376953,85.44000244140625,85.44000244140625,86.25,311600.0,82.54012298583984
2018-01-12,86.94000244140625,85.87999725341797,86.37000274658203,86.55999755859375,179400.0,82.8367691040039
2018-01-16,87.20999908447266,86.01000213623047,86.36000061035156,86.23999786376953,254000.0,82.5305404663086
2018-01-17,87.27999877929688,86.51000213623047,86.7699966430664,86.83999633789062,250400.0,83.104736328125
2018-01-18,87.31999969482422,86.3499984741211,86.8499984741211,87.23999786376953,220800.0,83.4875259399414
2018-01-19,88.69999694824219,87.30000305175781,87.30000305175781,88.61000061035156,177500.0,84.79859924316406
2018-01-22,88.61000061035156,86.5999984741211,88.61000061035156,87.45999908447266,369900.0,83.69806671142578
2018-01-23,87.75,86.91000366210938,87.44000244140625,87.5999984741211,158800.0,83.83203887939453
2018-01-24,88.5999984741211,86.3499984741211,87.80999755859375,88.19999694824219,255000.0,84.40624237060547
2018-01-25,89.43000030517578,88.12999725341797,88.4000015258789,89.43000030517578,339100.0,85.58334350585938
2018-01-26,89.5,88.45999908447266,89.4800033569336,89.13999938964844,206300.0,85.30580139160156
2018-01-29,89.2300033569336,87.54000091552734,88.7300033569336,87.7300033569336,254300.0,83.95645141601562
2018-01-30,87.95999908447266,87.05000305175781,87.44999694824219,87.69000244140625,345000.0,84.22539520263672
2018-01-31,88.0999984741211,86.76000213623047,88.08999633789062,87.41999816894531,519100.0,83.966064453125
2018-02-01,87.62999725341797,85.80999755859375,87.23999786376953,86.83999633789062,220800.0,83.40898132324219
2018-02-02,86.91000366210938,85.54000091552734,86.52999877929688,85.80000305175781,217000.0,82.41007232666016
2018-02-05,86.0,83.37999725341797,85.0999984741211,83.37999725341797,434200.0,80.08567810058594
2018-02-06,83.88999938964844,81.41000366210938,82.37999725341797,83.79000091552734,352300.0,80.47947692871094
2018-02-07,84.91000366210938,83.7300033569336,83.80999755859375,83.8499984741211,304100.0,80.53710174560547
2018-02-08,84.81999969482422,81.36000061035156,83.86000061035156,81.37999725341797,349100.0,78.16471099853516
2018-02-09,82.58999633789062,79.97000122070312,82.08999633789062,82.16000366210938,367200.0,78.91387939453125
2018-02-12,83.44999694824219,81.58999633789062,82.55999755859375,82.5999984741211,303000.0,79.33648681640625
2018-02-13,92.31999969482422,86.30000305175781,86.75,89.72000122070312,1102000.0,86.17517852783203
2018-02-14,90.87000274658203,88.73999786376953,89.58000183105469,90.66000366210938,512100.0,87.07804107666016
2018-02-15,91.97000122070312,90.18000030517578,90.18000030517578,91.16999816894531,333300.0,87.56791687011719
2018-02-16,92.13999938964844,90.48999786376953,91.04000091552734,91.83000183105469,335500.0,88.20181274414062
2018-02-20,92.19000244140625,90.72000122070312,91.23999786376953,91.05999755859375,372000.0,87.4622573852539
2018-02-21,92.27999877929688,90.11000061035156,91.33999633789062,90.16000366210938,283200.0,86.59780883789062
2018-02-22,91.45999908447266,90.30999755859375,90.44000244140625,90.61000061035156,255300.0,87.030029296875
2018-02-23,91.06999969482422,89.93000030517578,90.73999786376953,90.98999786376953,249400.0,87.3949966430664
2018-02-26,91.4800033569336,90.38999938964844,91.27999877929688,90.77999877929688,250300.0,87.19329833984375
2018-02-27,90.7300033569336,89.44000244140625,90.7300033569336,89.5,286500.0,85.96387481689453
2018-02-28,90.41000366210938,89.20999908447266,89.7300033569336,89.41999816894531,306900.0,85.88703155517578
2018-03-01,90.48999786376953,88.30999755859375,89.23999786376953,89.0,241900.0,85.48363494873047
2018-03-02,89.88999938964844,88.30000305175781,88.73999786376953,89.68000030517578,270600.0,86.13676452636719
2018-03-05,90.69999694824219,89.30999755859375,89.30999755859375,90.4000015258789,231200.0,86.82832336425781
2018-03-06,91.05000305175781,89.27999877929688,90.37000274658203,90.7699966430664,295800.0,87.1836929321289
2018-03-07,91.13999938964844,89.70999908447266,89.9800033569336,90.13999938964844,317500.0,86.5785903930664
2018-03-08,90.83000183105469,89.44999694824219,90.4000015258789,89.94999694824219,368000.0,86.3960952758789
2018-03-09,90.94999694824219,89.55999755859375,89.94000244140625,90.87000274658203,283100.0,87.27975463867188
2018-03-12,90.98999786376953,90.4000015258789,90.69999694824219,90.77999877929688,181100.0,87.19329833984375
2018-03-13,92.0999984741211,90.2699966430664,91.2699966430664,90.5,257500.0,86.92437744140625
2018-03-14,91.2699966430664,89.43000030517578,90.95999908447266,90.06999969482422,266900.0,86.51136016845703
2018-03-15,90.56999969482422,89.80000305175781,90.13999938964844,90.27999877929688,239600.0,86.71305847167969
2018-03-16,91.12999725341797,89.76000213623047,90.3499984741211,90.1500015258789,424800.0,86.58821105957031
2018-03-19,90.36000061035156,89.44999694824219,90.05999755859375,89.95999908447266,155000.0,86.40570068359375
2018-03-20,90.48999786376953,89.66999816894531,90.0199966430664,89.77999877929688,247700.0,86.2328109741211
2018-03-21,90.33999633789062,89.38999938964844,89.70999908447266,89.58999633789062,266300.0,86.05032348632812
2018-03-22,89.91000366210938,87.93000030517578,89.22000122070312,87.95999908447266,260900.0,84.48472595214844
2018-03-23,87.94000244140625,86.69000244140625,87.94000244140625,86.7699966430664,215900.0,83.34173583984375
2018-03-26,88.55000305175781,87.06999969482422,87.66000366210938,88.20999908447266,278900.0,84.7248306274414
2018-03-27,89.12999725341797,87.62000274658203,88.5199966430664,88.08000183105469,253200.0,84.59998321533203
2018-03-28,88.9000015258789,87.81999969482422,88.08000183105469,88.36000061035156,194000.0,84.86893463134766
2018-03-29,90.33999633789062,88.36000061035156,88.87999725341797,89.83000183105469,287300.0,86.28084564208984
2018-04-02,89.73999786376953,87.16999816894531,89.37000274658203,87.93000030517578,184400.0,84.4559097290039
2018-04-03,90.16999816894531,87.69000244140625,88.43000030517578,89.55999755859375,336600.0,86.0215072631836
2018-04-04,89.94999694824219,86.8499984741211,88.91999816894531,89.70999908447266,276500.0,86.16557312011719
2018-04-05,90.8499984741211,89.27999877929688,90.30000305175781,90.4000015258789,276400.0,86.82832336425781
2018-04-06,90.36000061035156,88.2300033569336,89.69000244140625,88.5,362200.0,85.0033950805664
2018-04-09,90.33999633789062,88.5999984741211,89.1500015258789,89.9000015258789,471500.0,86.34807586669922
2018-04-10,93.0999984741211,90.0999984741211,90.75,92.72000122070312,455600.0,89.05665588378906
2018-04-11,92.63999938964844,91.75,91.97000122070312,92.25,250800.0,88.60521697998047
2018-04-12,93.25,92.4800033569336,92.76000213623047,92.69999694824219,221500.0,89.03743743896484
2018-04-13,93.33000183105469,92.45999908447266,93.19999694824219,92.75,262600.0,89.08546447753906
2018-04-16,94.66000366210938,92.95999908447266,93.02999877929688,94.30999755859375,196900.0,90.58384704589844
2018-04-17,96.38999938964844,93.79000091552734,94.27999877929688,96.12999725341797,507200.0,92.3319091796875
2018-04-18,96.19999694824219,95.18000030517578,96.1500015258789,95.61000061035156,346800.0,91.83248138427734
2018-04-19,95.87999725341797,94.54000091552734,95.05000305175781,94.80000305175781,165000.0,91.05448150634766
2018-04-20,95.13999938964844,94.12000274658203,95.11000061035156,94.44000244140625,217800.0,90.70869445800781
2018-04-23,95.43000030517578,94.0999984741211,94.70999908447266,94.3499984741211,189500.0,90.62225341796875
2018-04-24,94.69999694824219,92.7699966430664,94.5999984741211,93.18000030517578,401900.0,89.49848175048828
2018-04-25,93.94999694824219,92.37000274658203,93.0199966430664,93.1500015258789,298700.0,89.46967315673828
2018-04-26,93.69999694824219,92.5999984741211,93.18000030517578,93.27999877929688,417000.0,89.59452819824219
2018-04-27,94.73999786376953,91.87999725341797,93.75,93.45999908447266,407500.0,89.76741790771484
2018-04-30,93.98999786376953,93.05000305175781,93.7300033569336,93.5,907800.0,89.80584716796875
2018-05-01,93.87000274658203,92.7300033569336,93.44999694824219,93.54000091552734,427800.0,89.8442611694336
2018-05-02,94.0,92.47000122070312,94.0,92.55999755859375,631100.0,88.90298461914062
2018-05-03,92.83000183105469,90.9800033569336,92.25,91.12000274658203,560200.0,87.51986694335938
2018-05-04,92.7699966430664,90.83999633789062,90.83999633789062,92.26000213623047,339900.0,88.61483001708984
2018-05-07,93.29000091552734,92.30000305175781,92.37000274658203,92.80000305175781,215100.0,89.13349914550781
2018-05-08,92.79000091552734,91.55000305175781,92.7699966430664,91.76000213623047,284600.0,88.4395523071289
2018-05-09,93.05999755859375,91.37000274658203,92.0,92.95999908447266,255500.0,89.59613800048828
2018-05-10,93.94000244140625,93.05000305175781,93.0999984741211,93.79000091552734,377900.0,90.3960952758789
2018-05-11,94.31999969482422,93.1500015258789,93.75,94.29000091552734,492900.0,90.87800598144531
2018-05-14,94.70999908447266,92.29000091552734,94.19000244140625,93.37000274658203,477500.0,89.99129486083984
2018-05-15,93.16999816894531,91.58999633789062,93.16999816894531,92.0999984741211,406400.0,88.76724243164062
2018-05-16,93.7699966430664,91.91999816894531,92.31999969482422,93.54000091552734,257600.0,90.1551513671875
2018-05-17,93.91999816894531,93.05000305175781,93.66999816894531,93.29000091552734,242600.0,89.9141616821289
2018-05-18,94.27999877929688,92.37999725341797,92.55999755859375,93.55999755859375,272300.0,90.17440795898438
2018-05-21,94.41000366210938,93.83999633789062,94.0199966430664,94.01000213623047,162300.0,90.60814666748047
2018-05-22,94.94999694824219,93.66999816894531,94.27999877929688,93.95999908447266,165300.0,90.5599365234375
2018-05-23,94.2699966430664,93.36000061035156,93.62999725341797,94.08999633789062,165800.0,90.68521118164062
2018-05-24,94.4800033569336,93.58000183105469,94.12000274658203,94.02999877929688,116200.0,90.62739562988281
2018-05-25,94.41999816894531,93.8499984741211,93.87999725341797,94.08000183105469,154900.0,90.67559814453125
2018-05-29,94.01000213623047,93.05999755859375,93.45999908447266,93.30999755859375,212700.0,89.93345642089844
2018-05-30,94.41000366210938,92.69999694824219,92.69999694824219,93.95999908447266,258600.0,90.5599365234375
2018-05-31,94.38999938964844,92.19000244140625,94.25,92.31999969482422,151900.0,88.97928619384766
2018-06-01,93.29000091552734,92.47000122070312,92.87999725341797,92.7699966430664,174800.0,89.41300201416016
2018-06-04,93.9000015258789,92.44000244140625,93.11000061035156,93.86000061035156,172100.0,90.46356201171875
2018-06-05,94.5,93.55999755859375,94.05999755859375,93.91999816894531,114800.0,90.52137756347656
2018-06-06,94.0999984741211,92.04000091552734,93.66999816894531,93.91000366210938,437300.0,90.51174926757812
2018-06-07,94.43000030517578,92.44000244140625,93.83000183105469,93.23999786376953,534000.0,89.86599731445312
2018-06-08,93.9000015258789,92.9800033569336,93.05000305175781,93.66000366210938,290600.0,90.27079772949219
2018-06-11,94.86000061035156,93.43000030517578,93.79000091552734,93.81999969482422,389400.0,90.42500305175781
2018-06-12,94.88999938964844,93.5999984741211,94.08999633789062,94.1500015258789,455100.0,90.74307250976562
2018-06-13,95.0,94.05000305175781,94.55000305175781,94.31999969482422,321400.0,90.90690612792969
2018-06-14,95.26000213623047,94.26000213623047,94.80999755859375,94.86000061035156,320400.0,91.42738342285156
2018-06-15,95.37000274658203,94.38999938964844,95.0,94.91999816894531,505200.0,91.48519897460938
2018-06-18,95.08000183105469,94.0199966430664,94.56999969482422,94.83999633789062,347300.0,91.40809631347656
2018-06-19,94.62000274658203,93.61000061035156,93.94999694824219,94.25,333700.0,90.83944702148438
2018-06-20,94.87000274658203,93.94000244140625,94.16999816894531,94.63999938964844,285600.0,91.21533966064453
2018-06-21,94.61000061035156,92.94999694824219,94.51000213623047,93.0999984741211,296900.0,89.7310562133789
2018-06-22,93.48999786376953,92.33999633789062,93.27999877929688,92.62999725341797,681100.0,89.27806854248047
2018-06-25,93.19999694824219,91.41999816894531,92.7699966430664,92.18000030517578,348700.0,88.84435272216797
2018-06-26,93.44999694824219,92.0199966430664,92.3499984741211,92.70999908447266,266700.0,89.35515594482422
2018-06-27,93.91000366210938,92.06999969482422,92.77999877929688,92.0999984741211,295800.0,88.76724243164062
2018-06-28,92.76000213623047,91.66000366210938,92.0,92.70999908447266,251300.0,89.35515594482422
2018-06-29,94.12000274658203,92.93000030517578,93.19999694824219,93.37999725341797,335800.0,90.00092315673828
2018-07-02,93.7699966430664,92.45999908447266,92.91000366210938,93.58999633789062,237500.0,90.20333862304688
2018-07-03,95.02999877929688,93.61000061035156,93.95999908447266,93.98999786376953,178000.0,90.58885955810547
2018-07-05,94.54000091552734,93.44999694824219,94.48999786376953,94.54000091552734,249900.0,91.11893463134766
2018-07-06,94.37999725341797,93.72000122070312,94.22000122070312,94.08000183105469,238000.0,90.67559814453125
2018-07-09,95.62999725341797,94.44999694824219,94.44999694824219,95.0999984741211,188700.0,91.65869140625
2018-07-10,96.16000366210938,95.16999816894531,95.16999816894531,96.11000061035156,216100.0,92.63214874267578
2018-07-11,96.37000274658203,95.11000061035156,95.61000061035156,95.68000030517578,220800.0,92.21769714355469
2018-07-12,96.83000183105469,95.58999633789062,96.0,95.73999786376953,196700.0,92.2755126953125
2018-07-13,96.19000244140625,94.66000366210938,95.36000061035156,94.87000274658203,205300.0,91.43700408935547
2018-07-16,94.87999725341797,93.16999816894531,94.7699966430664,93.29000091552734,132000.0,89.9141616821289
2018-07-17,94.73999786376953,93.16000366210938,93.22000122070312,94.63999938964844,155400.0,91.21533966064453
2018-07-18,95.18000030517578,94.18000030517578,94.63999938964844,94.62000274658203,150000.0,91.1960678100586
2018-07-19,96.54000091552734,94.69999694824219,94.69999694824219,96.33000183105469,213300.0,92.84417724609375
2018-07-20,96.16000366210938,95.33000183105469,95.94000244140625,95.77999877929688,192600.0,92.31407928466797
2018-07-23,96.33000183105469,94.79000091552734,95.94000244140625,95.13999938964844,195800.0,91.69722747802734
2018-07-24,95.86000061035156,94.52999877929688,95.33999633789062,94.75,225300.0,91.32135772705078
2018-07-25,95.0,94.05000305175781,94.56999969482422,94.7300033569336,182300.0,91.30208587646484
2018-07-26,96.37999725341797,94.55999755859375,94.87999725341797,96.06999969482422,170300.0,92.59358215332031
2018-07-27,103.02999877929688,97.1500015258789,98.0,102.9000015258789,626000.0,99.17642974853516
2018-07-30,104.0999984741211,99.94000244140625,103.5199966430664,102.5,531800.0,98.79090881347656
2018-07-31,103.4800033569336,100.77999877929688,102.4800033569336,102.43000030517578,588100.0,99.052001953125
2018-08-01,102.68000030517578,101.41000366210938,102.4000015258789,102.43000030517578,301400.0,99.052001953125
2018-08-02,103.58000183105469,101.30999755859375,101.63999938964844,102.9800033569336,327400.0,99.58386993408203
2018-08-03,104.5,102.8499984741211,102.98999786376953,104.0999984741211,300200.0,100.66694641113281
2018-08-06,104.94999694824219,103.9800033569336,104.01000213623047,104.20999908447266,279500.0,100.77330017089844
2018-08-07,104.68000030517578,103.38999938964844,104.16000366210938,103.55000305175781,296500.0,100.13507843017578
2018-08-08,103.9800033569336,102.87000274658203,103.33999633789062,102.95999908447266,277900.0,99.56452178955078
2018-08-09,104.06999969482422,103.0,103.11000061035156,103.9000015258789,265500.0,100.47351837158203
2018-08-10,104.04000091552734,102.16000366210938,103.37000274658203,102.37999725341797,325600.0,99.00364685058594
2018-08-13,103.47000122070312,100.94000244140625,102.23999786376953,101.4000015258789,227800.0,98.05597686767578
2018-08-14,102.5,101.33000183105469,101.88999938964844,101.9800033569336,176500.0,98.6168441772461
2018-08-15,101.66000366210938,100.05999755859375,101.55999755859375,101.33999633789062,300500.0,97.99794006347656
2018-08-16,102.16000366210938,101.3499984741211,101.62000274658203,101.66999816894531,276300.0,98.31704711914062
2018-08-17,102.98999786376953,101.4000015258789,101.68000030517578,102.76000213623047,131800.0,99.3711166381836
2018-08-20,103.5199966430664,102.5999984741211,102.91999816894531,102.86000061035156,198600.0,99.46781921386719
2018-08-21,103.8499984741211,102.83000183105469,102.83000183105469,103.29000091552734,209600.0,99.8836441040039
2018-08-22,103.4000015258789,102.73999786376953,103.31999969482422,103.18000030517578,103300.0,99.77727508544922
2018-08-23,103.55000305175781,102.76000213623047,103.31999969482422,102.91000366210938,124400.0,99.51616668701172
2018-08-24,104.13999938964844,102.9800033569336,102.9800033569336,103.80000305175781,127300.0,100.37683868408203
2018-08-27,104.83999633789062,103.79000091552734,103.79000091552734,104.54000091552734,175400.0,101.09242248535156
2018-08-28,105.19000244140625,103.80999755859375,104.55999755859375,103.88999938964844,214900.0,100.46385192871094
2018-08-29,105.16999816894531,103.7699966430664,104.19999694824219,104.69999694824219,199700.0,101.24713134765625
2018-08-30,105.7699966430664,103.81999969482422,104.86000061035156,104.69999694824219,231900.0,101.24713134765625
2018-08-31,105.44000244140625,104.37999725341797,104.62000274658203,104.70999908447266,153000.0,101.25680541992188
2018-09-04,106.5,104.58000183105469,105.31999969482422,106.37999725341797,323600.0,102.87173461914062
2018-09-05,108.77999877929688,106.27999877929688,106.27999877929688,108.18000030517578,334100.0,104.61236572265625
2018-09-06,109.69000244140625,108.12999725341797,108.4000015258789,108.94999694824219,228400.0,105.35697174072266
2018-09-07,108.94000244140625,107.79000091552734,108.94000244140625,107.9000015258789,258500.0,104.34160614013672
2018-09-10,109.08000183105469,107.88999938964844,108.38999938964844,108.55999755859375,212400.0,104.97985076904297
2018-09-11,108.7300033569336,107.54000091552734,108.26000213623047,108.5199966430664,101600.0,104.941162109375
2018-09-12,109.62999725341797,108.12000274658203,108.36000061035156,109.38999938964844,154700.0,105.782470703125
2018-09-13,110.9000015258789,108.66999816894531,108.75,110.81999969482422,273900.0,107.1653060913086
2018-09-14,112.16000366210938,109.79000091552734,110.7699966430664,111.97000122070312,424200.0,108.27738952636719
2018-09-17,112.30999755859375,110.91000366210938,112.30000305175781,111.30000305175781,564500.0,107.62948608398438
2018-09-18,111.79000091552734,109.97000122070312,111.19999694824219,111.58999633789062,202600.0,107.909912109375
2018-09-19,111.9000015258789,110.52999877929688,111.66999816894531,111.12999725341797,204300.0,107.46508026123047
2018-09-20,111.51000213623047,110.19000244140625,111.27999877929688,110.48999786376953,204500.0,106.84618377685547
2018-09-21,110.8499984741211,109.66999816894531,110.16999816894531,110.31999969482422,473200.0,106.68180084228516
2018-09-24,111.47000122070312,109.98999786376953,110.19999694824219,110.37999725341797,352400.0,106.73980712890625
2018-09-25,110.95999908447266,108.62000274658203,110.75,108.76000213623047,279000.0,105.17325592041016
2018-09-26,109.48999786376953,108.37000274658203,108.66000366210938,108.5999984741211,629100.0,105.01851654052734
2018-09-27,109.19000244140625,108.16000366210938,108.5999984741211,108.33999633789062,255600.0,104.76708221435547
2018-09-28,108.88999938964844,107.55000305175781,108.20999908447266,107.73999786376953,416900.0,104.18688201904297
2018-10-01,109.19999694824219,107.37000274658203,108.05000305175781,107.7699966430664,208600.0,104.21589660644531
2018-10-02,108.61000061035156,107.5999984741211,107.93000030517578,108.1500015258789,210300.0,104.58336639404297
2018-10-03,108.62999725341797,107.52999877929688,108.51000213623047,108.0,361200.0,104.43831634521484
2018-10-04,107.79000091552734,106.30000305175781,107.79000091552734,107.08999633789062,273300.0,103.55831146240234
2018-10-05,107.63999938964844,106.95999908447266,107.16999816894531,107.16999816894531,220800.0,103.63568115234375
2018-10-08,107.8499984741211,106.83999633789062,107.12000274658203,107.66999816894531,164700.0,104.11918640136719
2018-10-09,107.38999938964844,105.68000030517578,107.38999938964844,105.72000122070312,277500.0,102.23350524902344
2018-10-10,105.7699966430664,102.12000274658203,105.30000305175781,102.41999816894531,456000.0,99.04232788085938
2018-10-11,103.45999908447266,101.45999908447266,102.37000274658203,101.56999969482422,312700.0,98.22035217285156
2018-10-12,103.36000061035156,100.33999633789062,102.68000030517578,101.6500015258789,399100.0,98.2977294921875
2018-10-15,102.95999908447266,101.05000305175781,101.66999816894531,102.1500015258789,239600.0,98.78123474121094
2018-10-16,105.7699966430664,102.66000366210938,102.66000366210938,105.5999984741211,231300.0,102.11746978759766
2018-10-17,106.08999633789062,104.41999816894531,106.08999633789062,105.0199966430664,180900.0,101.55658721923828
2018-10-18,105.23999786376953,103.83000183105469,104.7300033569336,104.2699966430664,439900.0,100.831298828125
2018-10-19,105.20999908447266,104.27999877929688,104.58999633789062,104.31999969482422,271800.0,100.87966918945312
2018-10-22,104.73999786376953,103.05000305175781,104.61000061035156,103.97000122070312,199300.0,100.54119873046875
2018-10-23,104.56999969482422,101.72000122070312,102.7300033569336,103.68000030517578,479500.0,100.26078033447266
2018-10-24,103.81999969482422,99.87999725341797,103.62999725341797,100.08000183105469,498300.0,96.77951049804688
2018-10-25,101.97000122070312,100.51000213623047,100.87999725341797,101.29000091552734,299800.0,97.9496078491211
2018-10-26,101.05000305175781,99.30999755859375,100.44999694824219,100.36000061035156,423800.0,97.05026245117188
2018-10-29,102.06999969482422,99.13999938964844,101.31999969482422,100.16000366210938,271300.0,96.85685729980469
2018-10-30,101.41000366210938,99.33999633789062,100.04000091552734,101.37000274658203,318600.0,98.36085510253906
2018-10-31,103.06999969482422,101.8499984741211,102.43000030517578,101.95999908447266,417100.0,98.93334197998047
2018-11-01,103.47000122070312,102.38999938964844,102.69000244140625,103.18000030517578,392600.0,100.11711120605469
2018-11-02,105.33000183105469,95.05999755859375,97.05000305175781,103.80000305175781,959300.0,100.71871948242188
2018-11-05,104.4800033569336,101.25,103.98999786376953,101.87999725341797,481500.0,98.85569763183594
2018-11-06,104.7699966430664,101.48999786376953,101.63999938964844,104.0999984741211,381300.0,101.00981140136719
2018-11-07,105.26000213623047,103.33999633789062,104.87999725341797,105.11000061035156,340200.0,101.98982238769531
2018-11-08,105.7699966430664,104.5999984741211,104.94999694824219,105.12999725341797,368400.0,102.00923156738281
2018-11-09,105.80000305175781,103.12999725341797,104.95999908447266,104.29000091552734,227100.0,101.19416809082031
2018-11-12,104.3499984741211,101.58000183105469,104.16000366210938,101.7699966430664,343100.0,98.74896240234375
2018-11-13,103.45999908447266,101.54000091552734,102.33000183105469,102.37999725341797,225200.0,99.34086608886719
2018-11-14,103.91000366210938,101.70999908447266,103.04000091552734,102.08000183105469,163200.0,99.04976654052734
2018-11-15,104.83000183105469,101.20999908447266,101.55000305175781,104.79000091552734,261000.0,101.67933654785156
2018-11-16,107.1500015258789,104.19000244140625,104.19000244140625,106.27999877929688,235400.0,103.12509155273438
2018-11-19,106.6500015258789,104.70999908447266,106.19999694824219,105.18000030517578,192700.0,102.05774688720703
2018-11-20,105.43000030517578,103.37000274658203,104.62000274658203,104.30999755859375,246800.0,101.21357727050781
2018-11-21,105.19000244140625,103.1500015258789,104.68000030517578,103.5,221600.0,100.42761993408203
2018-11-23,104.41999816894531,102.9800033569336,103.0,103.9000015258789,75400.0,100.81574249267578
2018-11-26,104.98999786376953,102.94999694824219,104.72000122070312,103.69000244140625,231700.0,100.61196899414062
2018-11-27,103.31999969482422,102.08999633789062,103.30000305175781,102.30000305175781,213400.0,99.26324462890625
2018-11-28,104.06999969482422,101.68000030517578,102.80000305175781,104.02999877929688,327800.0,100.94187927246094
2018-11-29,104.93000030517578,103.69000244140625,103.72000122070312,103.8499984741211,238400.0,100.76722717285156
2018-11-30,104.55000305175781,103.25,103.66000366210938,104.05000305175781,330400.0,100.96128845214844
2018-12-03,105.51000213623047,102.44999694824219,105.2300033569336,104.45999908447266,292000.0,101.35912322998047
2018-12-04,104.86000061035156,102.83000183105469,104.86000061035156,102.94000244140625,273100.0,99.88424682617188
2018-12-06,102.0,98.3499984741211,102.0,101.62999725341797,302900.0,98.61312103271484
2018-12-07,102.8499984741211,99.0999984741211,100.88999938964844,99.7699966430664,226100.0,96.80834197998047
2018-12-10,99.86000061035156,98.22000122070312,99.43000030517578,99.11000061035156,161100.0,96.16793060302734
2018-12-11,101.0199966430664,98.27999877929688,100.0999984741211,98.66999816894531,192600.0,95.74098205566406
2018-12-12,100.94000244140625,99.75,100.0999984741211,99.93000030517578,240900.0,96.96359252929688
2018-12-13,101.2699966430664,99.51000213623047,100.41999816894531,100.31999969482422,167800.0,97.3420181274414
2018-12-14,100.95999908447266,99.12999725341797,100.04000091552734,100.33999633789062,187100.0,97.36141967773438
2018-12-17,100.6500015258789,98.04000091552734,99.83999633789062,98.63999938964844,313900.0,95.7118911743164
2018-12-18,100.2699966430664,97.2699966430664,99.43000030517578,97.94000244140625,231000.0,95.03266143798828
2018-12-19,98.83999633789062,95.2699966430664,98.27999877929688,95.58999633789062,268300.0,92.75242614746094
2018-12-20,96.1500015258789,93.66999816894531,95.51000213623047,95.01000213623047,248100.0,92.18963623046875
2018-12-21,96.61000061035156,93.51000213623047,94.76000213623047,93.55000305175781,588800.0,90.77298736572266
2018-12-24,92.86000061035156,89.66999816894531,92.86000061035156,89.69999694824219,168300.0,87.03726959228516
2018-12-26,92.01000213623047,89.72000122070312,89.72000122070312,91.7699966430664,394400.0,89.04581451416016
2018-12-27,92.4800033569336,90.01000213623047,90.69999694824219,92.37000274658203,467500.0,89.62802124023438
2018-12-28,93.91000366210938,92.05000305175781,92.5999984741211,92.69999694824219,437400.0,89.9482192993164
2018-12-31,94.06999969482422,92.66000366210938,92.81999969482422,94.06999969482422,246900.0,91.27754211425781
